time	pressure	flow
0	25.33333333	-1.16
0.001	25.39988889	-1.802142857
0.002	25.40330159	-2.239206349
0.003	25.46966667	-2.129190476
0.004	25.68828571	-1.094603175
0.005	26.03015873	1.016984127
0.006	26.56114286	4.892
0.007	27.17933333	10.77633333
0.008	27.89790476	18.91853968
0.009	28.61580952	28.88566667
0.01	29.38380952	39.81269841
0.011	30.30446032	51.03901587
0.012	31.20342857	62.37952381
0.013	32.076	74.00603175
0.014	32.85666667	86.01866667
0.015	33.59261905	97.92880952
0.016	34.23450794	109.0549841
0.017	34.85326984	118.8792381
0.018	35.48866667	127.0861905
0.019	36.1267619	133.309254
0.02	36.76365079	137.9414286
0.021	37.511	141.9276667
0.022	38.32206349	145.9466667
0.023	39.1537619	149.7389841
0.024	40.008	152.3925714
0.025	40.87920635	153.7431746
0.026	41.79536508	154.4295873
0.027	42.76842857	155.158619
0.028	43.85777778	155.4526667
0.029	44.98557143	154.612127
0.03	46.13952381	152.8571429
0.031	47.26488889	151.0013968
0.032	48.35333333	148.7861587
0.033	49.42290476	145.8863333
0.034	50.45936508	142.2318095
0.035	51.42388889	138.4044444
0.036	52.31914286	134.8944762
0.037	53.14674603	131.2559365
0.038	53.93053968	127.0432063
0.039	54.65728571	122.3619524
0.04	55.29142857	117.8911111
0.041	55.88696825	113.7602381
0.042	56.41733333	109.6773333
0.043	56.92852381	105.5706825
0.044	57.34857143	101.7258413
0.045	57.72904762	98.29857143
0.046	58.06819048	95.11473016
0.047	58.35726984	91.71011111
0.048	58.61866667	88.32028571
0.049	58.80777778	85.30922222
0.05	58.99984127	82.63460317
0.051	59.16957143	80.05757143
0.052	59.28511111	77.46206349
0.053	59.38909524	75.19673016
0.054	59.47733333	73.41542857
0.055	59.53722222	71.80253968
0.056	59.55666667	69.87444444
0.057	59.56395238	67.79857143
0.058	59.53885714	66.04695238
0.059	59.46228571	64.45942857
0.06	59.38380952	62.64238095
0.061	59.28538095	60.57355556
0.062	59.15673016	58.62146032
0.063	58.985	57.01166667
0.064	58.81596825	55.54692063
0.065	58.58912698	53.84230159
0.066	58.32390476	51.79161905
0.067	58.0317619	49.7192381
0.068	57.70669841	47.84171429
0.069	57.33495238	45.79552381
0.07	56.94111111	43.25333333
0.071	56.51404762	40.65057143
0.072	56.04704762	38.1492381
0.073	55.52720635	35.50763492
0.074	54.96028571	32.5291746
0.075	54.34952381	29.25904762
0.076	53.69628571	25.81393651
0.077	52.97288889	22.19833333
0.078	52.22828571	18.16590476
0.079	51.44407937	13.76098413
0.08	50.59047619	9.138730159
0.081	49.67290476	4.430952381
0.082	48.73568254	-0.670730159
0.083	47.74569841	-6.267968254
0.084	46.74866667	-12.21666667
0.085	45.77761905	-18.49444444
0.086	44.74863492	-25.41438095
0.087	43.56790476	-33.2722381
0.088	42.43238095	-41.73447619
0.089	41.8242381	-49.01884127
0.09	42.16809524	-52.06
0.091	42.80255556	-48.39844444
0.092	42.7132381	-39.53126984
0.093	42.08738095	-30.23552381
0.094	41.39285714	-24.03196825
0.095	40.81690476	-21.13079365
0.096	40.35066667	-20.11771429
0.097	39.91979365	-19.37188889
0.098	39.56088889	-17.97933333
0.099	39.15266667	-15.96442857
0.1	38.72142857	-13.89492063
0.101	38.32796825	-12.30304762
0.102	37.99685714	-11.2287619
0.103	37.68087302	-10.39015873
0.104	37.41622222	-9.627492063
0.105	37.13666667	-9.033333333
0.106	36.88704762	-8.55015873
0.107	36.66403175	-8.025111111
0.108	36.43609524	-7.260190476
0.109	36.21953968	-6.616126984
0.11	36.01666667	-6.136507937
0.111	35.8087619	-5.706428571
0.112	35.60377778	-5.312888889
0.113	35.42587302	-4.845063492
0.114	35.22714286	-4.481714286
0.115	35.05801587	-4.266349206
0.116	34.88796825	-3.986444444
0.117	34.72971429	-3.511761905
0.118	34.56580952	-2.874888889
0.119	34.41633333	-2.403555556
0.12	34.23857143	-2.416666667
0.121	34.07315873	-2.328015873
0.122	33.91463492	-2.125936508
0.123	33.75042857	-2.016238095
0.124	33.58149206	-2.183079365
0.125	33.42039683	-2.382777778
0.126	33.27	-2.462666667
0.127	33.09892063	-2.600222222
0.128	32.96511111	-2.946539683
0.129	32.81328571	-3.418857143
0.13	32.67428571	-3.593809524
0.131	32.51201587	-3.360698413
0.132	32.37390476	-3.043714286
0.133	32.22077778	-3.126222222
0.134	32.08885714	-3.516412698
0.135	31.94428571	-3.792380952
0.136	31.80374603	-3.851587302
0.137	31.65261905	-3.979253968
0.138	31.51180952	-4.390380952
0.139	31.37530159	-4.736714286
0.14	31.22111111	-4.605555556
0.141	31.10795238	-4.335095238
0.142	30.97038095	-4.31047619
0.143	30.85149206	-4.426539683
0.144	30.71514286	-4.381619048
0.145	30.6202381	-4.14047619
0.146	30.53028571	-3.898
0.147	30.43433333	-3.757
0.148	30.31015873	-3.588984127
0.149	30.19311111	-3.076206349
0.15	30.06904762	-2.435238095
0.151	29.9787619	-2.03
0.152	29.87987302	-1.841619048
0.153	29.79852381	-1.577904762
0.154	29.71711111	-1.081333333
0.155	29.65444444	-0.558492063
0.156	29.57390476	-0.180761905
0.157	29.47077778	0.316888889
0.158	29.39673016	0.949142857
0.159	29.28695238	1.355809524
0.16	29.17031746	1.235396825
0.161	29.08322222	0.937666667
0.162	28.97361905	0.875714286
0.163	28.89512698	1.14531746
0.164	28.80342857	1.339904762
0.165	28.72714286	1.299761905
0.166	28.65107937	1.234126984
0.167	28.58984127	1.378349206
0.168	28.514	1.573333333
0.169	28.43073016	1.577301587
0.17	28.35761905	1.315555556
0.171	28.259	1.112333333
0.172	28.20184127	1.062920635
0.173	28.12079365	1.239968254
0.174	28.03038095	1.34152381
0.175	27.95944444	1.277777778
0.176	27.88298413	1.373619048
0.177	27.79509524	1.45847619
0.178	27.7344127	1.382793651
0.179	27.63939683	1.14731746
0.18	27.57285714	1.017619048
0.181	27.49160317	1.023333333
0.182	27.40222222	0.931333333
0.183	27.30280952	0.631285714
0.184	27.21044444	0.381555556
0.185	27.14896825	0.447142857
0.186	27.05619048	0.644380952
0.187	26.95447619	0.69868254
0.188	26.88019048	0.530412698
0.189	26.78933333	0.425333333
0.19	26.71047619	0.553492063
0.191	26.62001587	0.69731746
0.192	26.53466667	0.58447619
0.193	26.46784127	0.193333333
0.194	26.38155556	-0.042126984
0.195	26.30071429	0.109047619
0.196	26.21577778	0.185111111
0.197	26.14752381	-0.00368254
0.198	26.05866667	-0.195238095
0.199	25.99193651	-0.06968254
0.2	25.89492063	0.221428571
0.201	25.82204762	0.080571429
0.202	25.72206349	-0.437650794
0.203	25.64255556	-0.786666667
0.204	25.5492381	-0.826666667
0.205	25.45896825	-0.764603175
0.206	25.34930159	-0.994285714
0.207	25.26642857	-1.229714286
0.208	25.18298413	-1.022253968
0.209	25.09995238	-0.660190476
0.21	25.07	-0.826666667